Ewe/V	<I>/mA	
2.4298228E-001	0.000000000000000E+000
2.5158757E-001	0.000000000000000E+000
2.5191614E-001	5.624938343054651E-005
2.5004619E-001	-2.161045551780426E-003
2.4663143E-001	-4.991563594530277E-003
2.4309437E-001	-7.602998501798861E-003
2.3962286E-001	-9.105685258732843E-003
2.3629506E-001	-1.045352802028131E-002
2.3298512E-001	-1.186342615919642E-002
2.2967787E-001	-1.311087788282839E-002
2.2633214E-001	-1.420329613505562E-002
2.2300120E-001	-1.523076870562706E-002
2.1958137E-001	-1.626687930450510E-002
2.1593754E-001	-1.704997983212617E-002
2.1265304E-001	-1.758351057558333E-002
2.0928770E-001	-1.800073685474090E-002
2.0600237E-001	-1.834335731637430E-002
2.0271893E-001	-1.860964493544116E-002
1.9939244E-001	-1.890450575673056E-002
1.9603600E-001	-1.910951219373161E-002
1.9279012E-001	-1.925819103241122E-002
1.8937576E-001	-1.942078049205001E-002
1.8597540E-001	-1.965281888127618E-002
1.8257210E-001	-1.978351729854246E-002
1.7922159E-001	-1.976231369205544E-002
1.7596170E-001	-1.965992230080293E-002
1.7260571E-001	-1.941399781995623E-002
1.6931422E-001	-1.904917848294099E-002
1.6598985E-001	-1.863949798914327E-002
1.6265759E-001	-1.815655239868441E-002
1.5932854E-001	-1.769509713583270E-002
1.5610600E-001	-1.719360352525773E-002
1.5282255E-001	-1.665208979081362E-002
1.4939357E-001	-1.615283310369148E-002
1.4608085E-001	-1.572742266168492E-002
1.4275603E-001	-1.533323296242103E-002
1.3936502E-001	-1.489409307318618E-002
1.3605399E-001	-1.439510705631930E-002
1.3270162E-001	-1.394126603018575E-002
1.2933329E-001	-1.343951717412173E-002
1.2603331E-001	-1.293476218773298E-002
1.2261237E-001	-1.247223316145787E-002
1.1929222E-001	-1.196154011890732E-002
1.1610874E-001	-1.139197763930240E-002
1.1279710E-001	-1.083360721239388E-002
1.0944361E-001	-1.033246988427190E-002
1.0612006E-001	-9.836503558973614E-003
1.0276833E-001	-9.519466364456011E-003
9.9397466E-002	-9.143357741399488E-003
9.6124642E-002	-8.785245627523558E-003
9.2796378E-002	-8.499686557765663E-003
8.9452602E-002	-8.299822649106031E-003
8.6093687E-002	-8.135546859260545E-003
8.2791872E-002	-7.922663614861242E-003
7.9474151E-002	-7.724879010889751E-003
7.6164894E-002	-7.572993574952974E-003
7.2762243E-002	-7.469082043811442E-003
6.9456004E-002	-7.449327027831141E-003
6.6050172E-002	-7.416279180847335E-003
6.2751964E-002	-7.357963603891779E-003
5.9378911E-002	-7.185835588758321E-003
5.6137286E-002	-7.060275781871544E-003
5.2765805E-002	-6.949718773920477E-003
4.9506441E-002	-6.844867306311953E-003
4.6150621E-002	-6.685123202445659E-003
4.2826530E-002	-6.541455360893469E-003
3.9464090E-002	-6.407595558351131E-003
3.6142491E-002	-6.354822685678163E-003
3.2795701E-002	-6.264396475693347E-003
2.9458417E-002	-6.185905043316640E-003
2.6211360E-002	-6.135373864058860E-003
2.2823170E-002	-6.133875434961321E-003
1.9532384E-002	-6.218089151151400E-003
1.6192805E-002	-6.282767788930197E-003
1.2848427E-002	-6.377771576065928E-003
9.5400494E-003	-6.486802226492408E-003
6.1871028E-003	-6.531764940368834E-003
2.8330882E-003	-6.691843716471194E-003
-5.0269347E-004	-6.801388805593389E-003
-3.8917363E-003	-6.977211908462483E-003
-7.3433542E-003	-7.148764815296804E-003
-1.0656441E-002	-7.358071278271067E-003
-1.3973524E-002	-7.518483398075204E-003
-1.7295111E-002	-7.694974732729953E-003
-2.0610912E-002	-7.876694503135356E-003
-2.3920499E-002	-8.051255526875592E-003
-2.7278904E-002	-8.192355058064232E-003
-3.0616047E-002	-8.293001934246563E-003
-3.3888593E-002	-8.428576295274555E-003
-3.7217408E-002	-8.588938250403064E-003
-4.0530533E-002	-8.697991304555442E-003
-4.3806795E-002	-8.819054081489155E-003
-4.7126044E-002	-8.993893098125164E-003
-5.0432913E-002	-9.151145475590539E-003
-5.3781863E-002	-9.336289366312228E-003
-5.7203986E-002	-9.610393930281146E-003
-6.0600642E-002	-9.851931516192514E-003
-6.3877039E-002	-1.011776199987083E-002
-6.7403235E-002	-1.053030352243312E-002
-7.0881777E-002	-1.015423789685444E-002
-7.4196167E-002	-1.050418766896880E-002
-7.7516213E-002	-1.075808622995530E-002
-8.0869399E-002	-1.109873117400721E-002
-8.4218778E-002	-1.141655153785394E-002
-8.7570943E-002	-1.169418457760050E-002
-9.0845309E-002	-1.207702525580466E-002
-9.4178550E-002	-1.235964271417719E-002
-9.7494587E-002	-1.265631484758412E-002
-1.0083776E-001	-1.298919424007634E-002
-1.0414686E-001	-1.329964849292592E-002
-1.0745061E-001	-1.362142016286305E-002
-1.1078701E-001	-1.389836590418507E-002
-1.1414057E-001	-1.426329313712632E-002
-1.1751988E-001	-1.457841648335056E-002
-1.2078273E-001	-1.481321977303229E-002
-1.2416229E-001	-1.496404161368353E-002
-1.2748647E-001	-1.510612298845663E-002
-1.3085118E-001	-1.540196366329682E-002
-1.3416708E-001	-1.571340140146973E-002
-1.3746876E-001	-1.602338224565278E-002
-1.4085406E-001	-1.636191484691521E-002
-1.4413860E-001	-1.673612361473258E-002
-1.4747886E-001	-1.711295161853153E-002
-1.5075260E-001	-1.749349162789182E-002
-1.5405612E-001	-1.800120206222885E-002
-1.5743326E-001	-1.850765002977570E-002
-1.6079234E-001	-1.903313648052019E-002
-1.6416910E-001	-1.961153171800513E-002
-1.6765931E-001	-2.026530938506901E-002
-1.7107552E-001	-2.060145274211961E-002
-1.7444044E-001	-2.096556132648603E-002
-1.7773427E-001	-2.137397674794478E-002
-1.8101135E-001	-2.182769912974869E-002
-1.8434511E-001	-2.227997076268129E-002
-1.8778171E-001	-2.290301181730020E-002
-1.9108848E-001	-2.342468809823423E-002
-1.9438639E-001	-2.397938322581439E-002
-1.9770645E-001	-2.458090530880200E-002
-2.0101184E-001	-2.541368242286196E-002
-2.0431484E-001	-2.604229780395836E-002
-2.0761940E-001	-2.673053573110165E-002
-2.1101314E-001	-2.739356519357378E-002
-2.1438566E-001	-2.804786297337369E-002
-2.1767497E-001	-2.883039380055408E-002
-2.2099133E-001	-2.962554101465054E-002
-2.2439650E-001	-3.038148481749825E-002
-2.2777241E-001	-3.133730632410289E-002
-2.3112904E-001	-3.253401760263991E-002
-2.3458327E-001	-3.428609611889449E-002
-2.3817956E-001	-3.489306305369655E-002
-2.4142314E-001	-3.586893406368574E-002
-2.4475218E-001	-3.692533837469880E-002
-2.4811648E-001	-3.787984927080668E-002
-2.5136003E-001	-3.886481718762719E-002
-2.5458023E-001	-3.987920711517828E-002
-2.5811744E-001	-4.092431307390321E-002
-2.6141489E-001	-4.175873736845814E-002
-2.6469108E-001	-4.308536169298294E-002
-2.6807022E-001	-4.439358009671937E-002
-2.7140480E-001	-4.574309561145207E-002
-2.7469379E-001	-4.708724129188069E-002
-2.7804637E-001	-4.855172569810640E-002
-2.8139669E-001	-5.002605169830533E-002
-2.8472018E-001	-5.133638951848185E-002
-2.8796518E-001	-5.261901523426082E-002
-2.9128048E-001	-5.394972831361067E-002
-2.9466981E-001	-5.537980770457979E-002
-2.9801756E-001	-5.705077003761139E-002
-3.0136484E-001	-5.876824202264852E-002
-3.0466416E-001	-6.039953540175125E-002
-3.0800471E-001	-6.208307372474736E-002
-3.1131551E-001	-6.412902775375562E-002
-3.1465176E-001	-6.642977600908906E-002
-3.1803152E-001	-6.879557970930961E-002
-3.2133430E-001	-7.081981690916628E-002
-3.2470581E-001	-7.299183837995216E-002
-3.2805350E-001	-7.480716494774042E-002
-3.3134565E-001	-7.665185020284360E-002
-3.3464584E-001	-7.900428866738551E-002
-3.3801034E-001	-8.109922004097161E-002
-3.4139860E-001	-8.322594147952611E-002
-3.4466848E-001	-8.531719920971081E-002
-3.4796062E-001	-8.774624727941205E-002
-3.5135332E-001	-9.041264015308637E-002
-3.5467792E-001	-9.328989631135870E-002
-3.5805598E-001	-9.623806450978756E-002
-3.6132774E-001	-9.927347051406188E-002
-3.6463067E-001	-1.022342350202590E-001
-3.6792898E-001	-1.050950539282631E-001
-3.7132195E-001	-1.085749182368163E-001
-3.7463340E-001	-1.118107705615645E-001
-3.7798241E-001	-1.152465550008920E-001
-3.8135305E-001	-1.189490947923963E-001
-3.8461822E-001	-1.225673401698705E-001
-3.8801095E-001	-1.264847322549083E-001
-3.9134806E-001	-1.310704490731250E-001
-3.9459673E-001	-1.358106284487978E-001
-3.9797434E-001	-1.404964664120083E-001
-4.0129596E-001	-1.451815039525937E-001
-4.0460381E-001	-1.503376647193586E-001
-4.0795150E-001	-1.559467300928080E-001
-4.1132259E-001	-1.623509420696774E-001
-4.1469646E-001	-1.691082600644402E-001
-4.1800153E-001	-1.770313178173573E-001
-4.2127973E-001	-1.850920218568377E-001
-4.2455402E-001	-1.933227446590171E-001
-4.2792997E-001	-2.018638862813200E-001
-4.3124500E-001	-2.120331039428960E-001
-4.3461141E-001	-2.232023240366159E-001
-4.3792775E-001	-2.351243432277661E-001
-4.4127163E-001	-2.481146221576380E-001
-4.4457164E-001	-2.625605516497296E-001
-4.4789642E-001	-2.785662088519669E-001
-4.5124498E-001	-2.976171329455268E-001
-4.5460528E-001	-3.175540292727272E-001
-4.5789364E-001	-3.387200497227281E-001
-4.6124926E-001	-3.654001320420015E-001
-4.6456003E-001	-3.920602497601898E-001
-4.6792766E-001	-4.218474214149852E-001
-4.7125232E-001	-4.572971686134046E-001
-4.7462112E-001	-4.925613380048230E-001
-4.7793919E-001	-5.363397197859285E-001
-4.8126787E-001	-5.818973609858507E-001
-4.8450226E-001	-6.352705876070388E-001
-4.8787260E-001	-6.917480309692063E-001
-4.9119869E-001	-7.572052550401680E-001
-4.9454451E-001	-8.317668230583273E-001
-4.9789155E-001	-9.148139585972430E-001
-5.0118476E-001	-1.006474685424095E+000
-5.0452006E-001	-1.104933627795825E+000
-5.0784302E-001	-1.221214669155945E+000
-5.1121032E-001	-1.345502120649726E+000
-5.1449484E-001	-1.482967228745977E+000
-5.1783758E-001	-1.634078625284846E+000
-5.2118808E-001	-1.802200115762908E+000
-5.2448535E-001	-1.975167032265431E+000
-5.2782899E-001	-2.164195481339981E+000
-5.3110850E-001	-2.373295034012720E+000
-5.3447640E-001	-2.599656503441075E+000
-5.3777647E-001	-2.843982496832165E+000
-5.4118752E-001	-3.104614667535600E+000
-5.4445016E-001	-3.378904317645668E+000
-5.4779166E-001	-3.672282962687838E+000
-5.5112147E-001	-3.977299530672553E+000
-5.5445576E-001	-4.301651512687400E+000
-5.5781931E-001	-4.647195344297297E+000
-5.6115210E-001	-5.005282546541608E+000
-5.6449997E-001	-5.372090772454158E+000
-5.6781250E-001	-5.762310492163954E+000
-5.7113832E-001	-6.164038732606642E+000
-5.7440108E-001	-6.575905453267239E+000
-5.7780737E-001	-7.010734052971236E+000
-5.8112091E-001	-7.451127314531135E+000
-5.8443481E-001	-7.905689517882536E+000
-5.8775294E-001	-8.370683414105457E+000
-5.9110236E-001	-8.867379381715338E+000
-5.9441525E-001	-9.368881952551604E+000
-5.9773856E-001	-9.890143148839456E+000
-6.0112792E-001	-1.039791739381189E+001
-6.0444695E-001	-1.092577942654419E+001
-6.0776818E-001	-1.148250840342430E+001
-6.1110824E-001	-1.205478740501906E+001
-6.1441934E-001	-1.262494433645949E+001
-6.1772758E-001	-1.319574918281419E+001
-6.2110215E-001	-1.377837344099453E+001
-6.2441325E-001	-1.437823884367307E+001
-6.2780684E-001	-1.499965243625803E+001
-6.3097656E-001	-1.564339776335075E+001
-6.3444579E-001	-1.628325341832692E+001
-6.3773996E-001	-1.691191628146186E+001
-6.4107275E-001	-1.754988674249984E+001
-6.4446253E-001	-1.822338526541972E+001
-6.4782113E-001	-1.889486079070940E+001
-6.5105772E-001	-1.957964512192725E+001
-6.5448672E-001	-2.023881266447518E+001
-6.5769476E-001	-2.091459409845629E+001
-6.6114902E-001	-2.161039234038816E+001
-6.6430032E-001	-2.230560505754056E+001
-6.6766357E-001	-2.302364124001463E+001
-6.7103368E-001	-2.373544834019657E+001
-6.7432785E-001	-2.443180077231227E+001
-6.7767972E-001	-2.513719356791694E+001
-6.8098450E-001	-2.588725880306814E+001
-6.8440592E-001	-2.662266486312114E+001
-6.8767780E-001	-2.734954926578490E+001
-6.9119114E-001	-2.808614779360005E+001
-6.9435990E-001	-2.881714886057205E+001
-6.9771397E-001	-2.955086770974697E+001
-7.0106566E-001	-3.031818117538865E+001
-7.0437407E-001	-3.110192908614863E+001
-7.0771343E-001	-3.184405620794854E+001
-7.1093440E-001	-3.261829775225867E+001
-7.1438038E-001	-3.338726485208309E+001
-7.1770781E-001	-3.422937818044173E+001
-7.2095257E-001	-3.500303509031642E+001
-7.2429091E-001	-3.576399992917381E+001
-7.2769403E-001	-3.653236344726207E+001
-7.3091781E-001	-3.728432033503520E+001
-7.3436481E-001	-3.807961635682759E+001
-7.3776251E-001	-3.886387134013660E+001
-7.4097174E-001	-3.962471040809919E+001
-7.4432456E-001	-4.043558138194099E+001
-7.4765533E-001	-4.122440105988596E+001
-7.5099492E-001	-4.205106212772591E+001
-7.5429964E-001	-4.285000171871945E+001
-7.5766057E-001	-4.361525315271922E+001
-7.6095241E-001	-4.442421585897364E+001
-7.6423222E-001	-4.520005831409858E+001
-7.6757181E-001	-4.595593024750826E+001
-7.7087528E-001	-4.678028079044736E+001
-7.7425951E-001	-4.758233146225973E+001
-7.7757972E-001	-4.834922896417390E+001
-7.8094423E-001	-4.917336218327040E+001
-7.8429931E-001	-4.993229401904364E+001
-7.8762108E-001	-5.077117575994603E+001
-7.9089540E-001	-5.162926943408888E+001
-7.9428738E-001	-5.238144819585091E+001
-7.9761469E-001	-5.324269516865894E+001
-8.0086547E-001	-5.404843722793839E+001
-8.0414599E-001	-5.496527531033462E+001
-8.0754948E-001	-5.572225610407369E+001
-8.1087410E-001	-5.645565263030517E+001
-8.1422412E-001	-5.721553739239937E+001
-8.1757307E-001	-5.797539339664297E+001
-8.2091314E-001	-5.887639142962325E+001
-8.2425022E-001	-5.972081829146055E+001
-8.2747722E-001	-6.060763644029026E+001
-8.3093911E-001	-6.154932983739684E+001
-8.3419693E-001	-6.245397474689128E+001
-8.3755916E-001	-6.332746810798596E+001
-8.4085804E-001	-6.418872166495032E+001
-8.4421116E-001	-6.492839264962799E+001
-8.4755135E-001	-6.564226670084668E+001
-8.5090870E-001	-6.645217783213366E+001
-8.5423148E-001	-6.730659412530383E+001
-8.5753423E-001	-6.809931184396433E+001
-8.6083990E-001	-6.913960882756726E+001
-8.6423880E-001	-7.005053454347944E+001
-8.6760038E-001	-7.090833973405250E+001
-8.7088180E-001	-7.175633429634740E+001
-8.7416536E-001	-7.258200260854392E+001
-8.7759334E-001	-7.359037476059552E+001
-8.8082308E-001	-7.456413851314153E+001
-8.8415813E-001	-7.533804022969935E+001
-8.8749963E-001	-7.609737400061528E+001
-8.9080518E-001	-7.700415784302501E+001
-8.9420229E-001	-7.804200966518260E+001
-8.9750719E-001	-7.917940061182526E+001
-8.9916658E-001	-7.962425261277420E+001
-8.9950186E-001	-7.970305706640920E+001