Ewe/V	<I>/mA	
1.9713351E-001	0.000000000000000E+000
1.9772924E-001	0.000000000000000E+000
-1.0054993E-001	-3.816576317103227E+000
-1.0234659E-001	-1.711620034132018E+000
-1.0568389E-001	-1.063237904964794E+000
-1.0904621E-001	-8.897710233776763E-001
-1.1234280E-001	-7.963070381638735E-001
-1.1568763E-001	-7.408543137975823E-001
-1.1901422E-001	-6.979613387826173E-001
-1.2239520E-001	-6.698350183841661E-001
-1.2570716E-001	-6.496188803649048E-001
-1.2905550E-001	-6.340198296716490E-001
-1.3238326E-001	-6.221073922182065E-001
-1.3573202E-001	-6.128913782056851E-001
-1.3907157E-001	-6.063433238860920E-001
-1.4238794E-001	-6.018604276710953E-001
-1.4569543E-001	-5.993106150378384E-001
-1.4905570E-001	-5.983306253849312E-001
-1.5238953E-001	-5.987356867316092E-001
-1.5569946E-001	-6.007703769875246E-001
-1.5902652E-001	-6.040190943750012E-001
-1.6232395E-001	-6.085689704650497E-001
-1.6564834E-001	-6.143917517547779E-001
-1.6900541E-001	-6.210771771377988E-001
-1.7234440E-001	-6.285938450465292E-001
-1.7564578E-001	-6.368143482416562E-001
-1.7897370E-001	-6.452123009165716E-001
-1.8229333E-001	-6.536814201984011E-001
-1.8566447E-001	-6.620230153657838E-001
-1.8898538E-001	-6.699266981332022E-001
-1.9231008E-001	-6.775489587265495E-001
-1.9563647E-001	-6.847556744559258E-001
-1.9895971E-001	-6.917416229976041E-001
-2.0226999E-001	-6.988853940521098E-001
-2.0563328E-001	-7.064459879538072E-001
-2.0897515E-001	-7.175487924079111E-001
-2.1231996E-001	-7.263800615497065E-001
-2.1565251E-001	-7.355173906016486E-001
-2.1897340E-001	-7.454679038936627E-001
-2.2231086E-001	-7.561837461042824E-001
-2.2564870E-001	-7.677759663484975E-001
-2.2895919E-001	-7.802636234346672E-001
-2.3228543E-001	-7.951726830270669E-001
-2.3561192E-001	-8.107784418543134E-001
-2.3891413E-001	-8.258564407864819E-001
-2.4226770E-001	-8.417993041209435E-001
-2.4561235E-001	-8.587973137403933E-001
-2.4894641E-001	-8.796353020904970E-001
-2.5225425E-001	-8.990343228364609E-001
-2.5557768E-001	-9.184942994369933E-001
-2.5888965E-001	-9.385259421636984E-001
-2.6222470E-001	-9.625968510681595E-001
-2.6557189E-001	-9.843265155993688E-001
-2.6889446E-001	-1.005897689373882E+000
-2.7223068E-001	-1.028961899422042E+000
-2.7556142E-001	-1.055292285849003E+000
-2.7887464E-001	-1.078697362660709E+000
-2.8221273E-001	-1.103271201476129E+000
-2.8555644E-001	-1.134505784692596E+000
-2.8888327E-001	-1.160769120211102E+000
-2.9224148E-001	-1.191115930942715E+000
-2.9557967E-001	-1.223827110644542E+000
-2.9889143E-001	-1.253902406075962E+000
-3.0222198E-001	-1.290575964249124E+000
-3.0554608E-001	-1.323835024212162E+000
-3.0889356E-001	-1.362000753073712E+000
-3.1219456E-001	-1.399020767889050E+000
-3.1553546E-001	-1.439904830510475E+000
-3.1884959E-001	-1.479485271672470E+000
-3.2219854E-001	-1.525759241068306E+000
-3.2545781E-001	-1.570652746579455E+000
-3.2884923E-001	-1.589398550738931E+000
-3.3219349E-001	-1.582557470109894E+000
-3.3553860E-001	-1.580646892442530E+000
-3.3889258E-001	-1.583362717226072E+000
-3.4220016E-001	-1.561522103912505E+000
-3.4550038E-001	-1.573179409339694E+000
-3.4886602E-001	-1.582566044553595E+000
-3.5217983E-001	-1.613233717303515E+000
-3.5549742E-001	-1.652279449144572E+000
-3.5882989E-001	-1.683607841069808E+000
-3.6216986E-001	-1.744595147472367E+000
-3.6551532E-001	-1.777146364398980E+000
-3.6883450E-001	-1.824863261952384E+000
-3.7220821E-001	-1.886072580040810E+000
-3.7551942E-001	-1.927309714732061E+000
-3.7887937E-001	-1.991498165604028E+000
-3.8217580E-001	-2.064632188846890E+000
-3.8550040E-001	-2.116798411973703E+000
-3.8887879E-001	-2.189480346592791E+000
-3.9223704E-001	-2.284785328012731E+000
-3.9565581E-001	-2.369599555345383E+000
-3.9913732E-001	-2.472750421270333E+000
-4.0248430E-001	-2.602492559895232E+000
-4.0557998E-001	-2.729070385637726E+000
-4.0881744E-001	-2.865104530369493E+000
-4.1211626E-001	-3.036179035793818E+000
-4.1544825E-001	-3.234758210084358E+000
-4.1874316E-001	-3.426209602896797E+000
-4.2207137E-001	-3.658391398121587E+000
-4.2538878E-001	-3.923695821114622E+000
-4.2870724E-001	-4.218741861719082E+000
-4.3203419E-001	-4.535306925826635E+000
-4.3537122E-001	-4.886858078583280E+000
-4.3871024E-001	-5.311010516529976E+000
-4.4210356E-001	-5.750388652307112E+000
-4.4541776E-001	-6.247369792559931E+000
-4.4871387E-001	-6.777116247953664E+000
-4.5201114E-001	-7.353226863851518E+000
-4.5549515E-001	-7.952879052587718E+000
-4.5851597E-001	-8.599549962972645E+000
-4.6190107E-001	-9.246127698777656E+000
-4.6554860E-001	-1.005178159455730E+001
-4.6901238E-001	-1.081196962416193E+001
-4.7231027E-001	-1.161499434366416E+001
-4.7567603E-001	-1.241490946823336E+001
-4.7905546E-001	-1.332060911134341E+001
-4.8264572E-001	-1.434060649898987E+001
-4.8573053E-001	-1.527890167070390E+001
-4.8911658E-001	-1.627505308886919E+001
-4.9241346E-001	-1.721412701344264E+001
-4.9575236E-001	-1.821096687547828E+001
-4.9909490E-001	-1.927671418283238E+001
-5.0241643E-001	-2.027775252449050E+001
-5.0574201E-001	-2.138629888143788E+001
-5.0906086E-001	-2.245404958388758E+001
-5.1235318E-001	-2.347811680970575E+001
-5.1577222E-001	-2.460474529986021E+001
-5.1906943E-001	-2.573998835997502E+001
-5.2234083E-001	-2.689241731718948E+001
-5.2577209E-001	-2.805464864272790E+001
-5.2903754E-001	-2.915543053366463E+001
-5.3228867E-001	-3.017014170208779E+001
-5.3574848E-001	-3.142196314369937E+001
-5.3906047E-001	-3.264531332931235E+001
-5.4243672E-001	-3.392182997438147E+001
-5.4574960E-001	-3.516380550499537E+001
-5.4910010E-001	-3.641238701765900E+001
-5.5247724E-001	-3.753621146978730E+001
-5.5582452E-001	-3.893933182808735E+001
-5.5909795E-001	-4.028075765462435E+001
-5.6239498E-001	-4.144477066462919E+001
-5.6574160E-001	-4.271851639343976E+001
-5.6906223E-001	-4.410314658208029E+001
-5.7245821E-001	-4.534957194368081E+001
-5.7572818E-001	-4.660113567869030E+001
-5.7907480E-001	-4.796221498787091E+001
-5.8239484E-001	-4.943504796545312E+001
-5.8572131E-001	-5.052598186621820E+001
-5.8903480E-001	-5.194380195203699E+001
-5.9229243E-001	-5.314953871251714E+001
-5.9572434E-001	-5.455907967616474E+001
-5.9905142E-001	-5.583736285931627E+001
-6.0233808E-001	-5.712322986833767E+001
-6.0570985E-001	-5.867392611568857E+001
-6.0918522E-001	-5.986855520281188E+001
-6.1235344E-001	-6.123616216903656E+001
-6.1569142E-001	-6.265337076313244E+001
-6.1898988E-001	-6.413809194182528E+001
-6.2236667E-001	-6.570082842436850E+001
-6.2566137E-001	-6.675646717929749E+001
-6.2902021E-001	-6.833428128189706E+001
-6.3231957E-001	-6.973432976545212E+001
-6.3575953E-001	-7.104380261525830E+001
-6.3905686E-001	-7.255410952297973E+001
-6.4229572E-001	-7.374889421659014E+001
-6.4559847E-001	-7.485029839077856E+001
-6.4894110E-001	-7.601964630555517E+001
-6.5232581E-001	-7.789415210301536E+001
-6.5565479E-001	-7.920926812732978E+001
-6.5898246E-001	-8.058584526913626E+001
-6.6229266E-001	-8.174676600210921E+001
-6.6558337E-001	-8.240943632213043E+001
-6.6896677E-001	-8.406586727232343E+001
-6.7226654E-001	-8.535498959138010E+001
-6.7558360E-001	-8.702382524389714E+001
-6.7905903E-001	-8.822555023669929E+001
-6.8228650E-001	-8.968158733743070E+001
-6.8560112E-001	-9.087972251488682E+001
-6.8894696E-001	-9.211764476115900E+001
-6.9229561E-001	-9.358499384958805E+001
-6.9555509E-001	-9.519052774340469E+001
-6.9841450E-001	-9.574286227045923E+001
-6.9972187E-001	-9.564491429822203E+001