Ewe/V	<I>/mA	
2.1021885E-001	0.000000000000000E+000
2.1002023E-001	0.000000000000000E+000
-1.0076673E-001	5.452289994515418E-001
-1.0281479E-001	1.342542348043554E-001
-1.0640005E-001	-9.522616710638180E-004
-1.0991826E-001	-9.166169992528554E-003
-1.1325920E-001	-1.165949081330468E-002
-1.1656683E-001	-1.273957844368262E-002
-1.1990905E-001	-1.328088125585408E-002
-1.2329327E-001	-1.365542254760321E-002
-1.2657733E-001	-1.393844918854163E-002
-1.2991001E-001	-1.414954037587790E-002
-1.3325816E-001	-1.431554905787562E-002
-1.3661015E-001	-1.449702733441888E-002
-1.3995722E-001	-1.460669553265553E-002
-1.4326742E-001	-1.481445107518903E-002
-1.4658882E-001	-1.506814098428749E-002
-1.4986886E-001	-1.517771457160467E-002
-1.5324822E-001	-1.535565469236896E-002
-1.5656982E-001	-1.561230525541581E-002
-1.5991862E-001	-1.585188360357331E-002
-1.6324639E-001	-1.621616748249283E-002
-1.6658500E-001	-1.656042551089248E-002
-1.6988924E-001	-1.689573741451346E-002
-1.7323548E-001	-1.724942210352134E-002
-1.7656496E-001	-1.766938388173828E-002
-1.7991693E-001	-1.805496747653076E-002
-1.8318021E-001	-1.847956738432163E-002
-1.8656571E-001	-1.891414488599988E-002
-1.8986762E-001	-1.940888464680174E-002
-1.9316420E-001	-1.994568445267489E-002
-1.9651213E-001	-2.044210760162138E-002
-1.9982570E-001	-2.092875373664607E-002
-2.0312102E-001	-2.147988269596321E-002
-2.0645773E-001	-2.205345179996221E-002
-2.0978932E-001	-2.272523862864978E-002
-2.1320242E-001	-2.339926437474488E-002
-2.1646273E-001	-2.407352462869385E-002
-2.1982488E-001	-2.478635151618766E-002
-2.2320507E-001	-2.557885644000419E-002
-2.2650567E-001	-2.631511929659892E-002
-2.2986954E-001	-2.708078139436154E-002
-2.3316871E-001	-2.792032612590015E-002
-2.3649587E-001	-2.874847602913744E-002
-2.3981215E-001	-2.961120348930049E-002
-2.4320957E-001	-3.057371209773385E-002
-2.4642847E-001	-3.147521201960110E-002
-2.4980146E-001	-3.257220477035605E-002
-2.5312734E-001	-3.371157791714008E-002
-2.5644535E-001	-3.490391739226776E-002
-2.5974938E-001	-3.628596898502290E-002
-2.6307783E-001	-3.769998292052604E-002
-2.6643550E-001	-3.937498185013000E-002
-2.6979131E-001	-4.092403069771722E-002
-2.7308112E-001	-4.236458724859837E-002
-2.7647701E-001	-4.375224067685723E-002
-2.7979290E-001	-4.523369755675888E-002
-2.8309143E-001	-4.681558296834687E-002
-2.8639543E-001	-4.841832184048145E-002
-2.8975588E-001	-5.009281107834451E-002
-2.9308558E-001	-5.176299927236105E-002
-2.9642674E-001	-5.341549285231340E-002
-2.9976681E-001	-5.506406441779305E-002
-3.0308339E-001	-5.685380050259775E-002
-3.0644041E-001	-5.872475936448640E-002
-3.0979601E-001	-6.059890383421274E-002
-3.1314352E-001	-6.248344320219767E-002
-3.1647745E-001	-6.457543114934095E-002
-3.1980035E-001	-6.675083755322586E-002
-3.2309696E-001	-6.921459287490261E-002
-3.2640883E-001	-7.156307452032684E-002
-3.2976776E-001	-7.407896702922834E-002
-3.3303401E-001	-7.684066396278211E-002
-3.3639961E-001	-7.924636894612336E-002
-3.3974138E-001	-8.163713812917117E-002
-3.4304389E-001	-8.437217888947279E-002
-3.4638700E-001	-8.702198354268431E-002
-3.4973893E-001	-8.972695345545367E-002
-3.5303849E-001	-9.253622884145707E-002
-3.5641915E-001	-9.560161835952186E-002
-3.5969791E-001	-9.915679175564640E-002
-3.6301100E-001	-1.026087474323563E-001
-3.6637509E-001	-1.059599983205901E-001
-3.6964622E-001	-1.094860028676425E-001
-3.7302193E-001	-1.130666252456658E-001
-3.7637457E-001	-1.169074592596560E-001
-3.7965035E-001	-1.210527092558400E-001
-3.8302863E-001	-1.254743615890852E-001
-3.8635024E-001	-1.304748308974890E-001
-3.8973579E-001	-1.354329534685781E-001
-3.9303446E-001	-1.405866492197738E-001
-3.9635167E-001	-1.460745322590072E-001
-3.9972842E-001	-1.518977747204390E-001
-4.0298200E-001	-1.578509465406941E-001
-4.0635091E-001	-1.641077861253518E-001
-4.0969464E-001	-1.708827205719841E-001
-4.1299716E-001	-1.780443679390866E-001
-4.1633165E-001	-1.859556449438099E-001
-4.1963726E-001	-1.940578466653533E-001
-4.2300069E-001	-2.023509301481740E-001
-4.2636114E-001	-2.112773879473284E-001
-4.2968217E-001	-2.209995722980782E-001
-4.3297383E-001	-2.314403418417412E-001
-4.3632010E-001	-2.426672871923926E-001
-4.3961969E-001	-2.550184769442962E-001
-4.4293550E-001	-2.693614775660604E-001
-4.4627908E-001	-2.843956004169432E-001
-4.4962043E-001	-3.008667113256429E-001
-4.5289034E-001	-3.178798436939640E-001
-4.5629978E-001	-3.363227286689514E-001
-4.5965502E-001	-3.598315215387915E-001
-4.6296898E-001	-3.821611059309538E-001
-4.6629462E-001	-4.059116600743136E-001
-4.6963319E-001	-4.333693473407703E-001
-4.7292286E-001	-4.620763795264633E-001
-4.7623071E-001	-4.928130312260599E-001
-4.7959462E-001	-5.310398416385196E-001
-4.8295638E-001	-5.685842518482094E-001
-4.8622715E-001	-6.140638775400298E-001
-4.8957911E-001	-6.594064843378077E-001
-4.9294716E-001	-7.105124422051503E-001
-4.9628866E-001	-7.647977960200096E-001
-4.9958515E-001	-8.246202580618629E-001
-5.0293875E-001	-8.909345383876115E-001
-5.0624603E-001	-9.632473944275883E-001
-5.0953889E-001	-1.041896072108607E+000
-5.1293707E-001	-1.129940176737295E+000
-5.1614785E-001	-1.225165796826960E+000
-5.1953709E-001	-1.330979675557327E+000
-5.2286154E-001	-1.447826873288195E+000
-5.2620095E-001	-1.571586413274556E+000
-5.2950984E-001	-1.709164859938530E+000
-5.3285146E-001	-1.855924294816212E+000
-5.3620136E-001	-2.014728702296090E+000
-5.3949815E-001	-2.185037358994881E+000
-5.4288936E-001	-2.369357570842071E+000
-5.4617929E-001	-2.566966320568827E+000
-5.4950196E-001	-2.776189707329387E+000
-5.5286497E-001	-2.995598607533665E+000
-5.5616045E-001	-3.230526989107076E+000
-5.5950701E-001	-3.484409618892002E+000
-5.6286180E-001	-3.739932650505978E+000
-5.6614518E-001	-4.019832706362841E+000
-5.6951445E-001	-4.304407952733797E+000
-5.7282650E-001	-4.606372029902843E+000
-5.7618433E-001	-4.921328347045659E+000
-5.7949013E-001	-5.250342214447187E+000
-5.8279657E-001	-5.585392873775803E+000
-5.8615124E-001	-5.954512616362466E+000
-5.8947372E-001	-6.312191019041964E+000
-5.9277552E-001	-6.678337188457412E+000
-5.9609556E-001	-7.053493387215404E+000
-5.9942836E-001	-7.453571047241169E+000
-6.0284483E-001	-7.878262157431934E+000
-6.0610604E-001	-8.306836020061048E+000
-6.0944080E-001	-8.775572170466972E+000
-6.1275440E-001	-9.229538619101078E+000
-6.1609769E-001	-9.707198713473105E+000
-6.1959791E-001	-1.021525538974012E+001
-6.2320405E-001	-1.072805980028880E+001
-6.2642354E-001	-1.125139176009338E+001
-6.2979329E-001	-1.181990910134856E+001
-6.3311261E-001	-1.235147648743373E+001
-6.3644254E-001	-1.290437983983550E+001
-6.3980734E-001	-1.350373173022009E+001
-6.4309675E-001	-1.420802145937529E+001
-6.4639366E-001	-1.479618116311059E+001
-6.4981765E-001	-1.538983181208488E+001
-6.5310133E-001	-1.597151124714162E+001
-6.5641838E-001	-1.658803395828576E+001
-6.5986711E-001	-1.720761123827235E+001
-6.6318315E-001	-1.783774302267290E+001
-6.6643566E-001	-1.846802583803810E+001
-6.6973549E-001	-1.910381641132739E+001
-6.7315614E-001	-1.975650748357964E+001
-6.7641705E-001	-2.042134625526003E+001
-6.7985791E-001	-2.110311477659783E+001
-6.8305719E-001	-2.176537715704594E+001
-6.8647254E-001	-2.249228847443599E+001
-6.8975431E-001	-2.319783165179788E+001
-6.9302344E-001	-2.391230228503255E+001
-6.9636506E-001	-2.460107213348023E+001
-6.9889098E-001	-2.511655023387290E+001
-7.0012534E-001	-2.531827992891016E+001