Ewe/V	<I>/mA	cycle number	
2.2068165E-001	8.783097291598096E-005	1.000000000000000E+000
2.1880248E-001	-6.044282065469597E-003	1.000000000000000E+000
2.1539983E-001	-7.076181285380234E-003	1.000000000000000E+000
2.1196985E-001	-8.131879479725379E-003	1.000000000000000E+000
2.0858470E-001	-8.691256724175991E-003	1.000000000000000E+000
2.0514236E-001	-9.082787487551119E-003	1.000000000000000E+000
2.0177791E-001	-9.596602746260813E-003	1.000000000000000E+000
1.9836801E-001	-1.016667611992017E-002	1.000000000000000E+000
1.9495040E-001	-1.131474349044378E-002	1.000000000000000E+000
1.9157794E-001	-1.126796560384892E-002	1.000000000000000E+000
1.8817104E-001	-1.163704810330879E-002	1.000000000000000E+000
1.8476436E-001	-1.212155797173678E-002	1.000000000000000E+000
1.8139288E-001	-1.229420496415386E-002	1.000000000000000E+000
1.7796683E-001	-1.373272414675822E-002	1.000000000000000E+000
1.7458560E-001	-1.327114544498423E-002	1.000000000000000E+000
1.7117445E-001	-1.353564317895808E-002	1.000000000000000E+000
1.6782059E-001	-1.394314624760329E-002	1.000000000000000E+000
1.6436298E-001	-1.425752776214843E-002	1.000000000000000E+000
1.6101649E-001	-1.537421112793452E-002	1.000000000000000E+000
1.5758309E-001	-1.509230704943870E-002	1.000000000000000E+000
1.5412779E-001	-1.523281306580604E-002	1.000000000000000E+000
1.5076119E-001	-1.557834680755130E-002	1.000000000000000E+000
1.4737883E-001	-1.654460569107280E-002	1.000000000000000E+000
1.4403032E-001	-1.618365545032757E-002	1.000000000000000E+000
1.4061897E-001	-1.617423622132926E-002	1.000000000000000E+000
1.3717428E-001	-1.636403508128614E-002	1.000000000000000E+000
1.3380939E-001	-1.641536825474316E-002	1.000000000000000E+000
1.3035674E-001	-1.757345190237497E-002	1.000000000000000E+000
1.2761369E-001	-1.683548994299963E-002	1.000000000000000E+000
1.2653589E-001	-1.483429441801634E-002	1.000000000000000E+000
1.2912080E-001	-2.214142494882925E-004	1.000000000000000E+000
1.3397253E-001	3.012961134933156E-003	1.000000000000000E+000
1.3803521E-001	7.282596912523774E-003	1.000000000000000E+000
1.4211185E-001	8.140368676641613E-003	1.000000000000000E+000
1.4705083E-001	9.600548050563006E-003	1.000000000000000E+000
1.5125345E-001	9.825825073765421E-003	1.000000000000000E+000
1.5465851E-001	1.109177750069817E-002	1.000000000000000E+000
1.5800300E-001	1.087024179206945E-002	1.000000000000000E+000
1.6146041E-001	1.095357973300767E-002	1.000000000000000E+000
1.6485244E-001	1.106230506540973E-002	1.000000000000000E+000
1.6821226E-001	1.125187187634147E-002	1.000000000000000E+000
1.7161524E-001	1.210743143027418E-002	1.000000000000000E+000
1.7501125E-001	1.154154717795649E-002	1.000000000000000E+000
1.7846526E-001	1.159344563375994E-002	1.000000000000000E+000
1.8183379E-001	1.169136891693345E-002	1.000000000000000E+000
1.8527292E-001	1.168171207587249E-002	1.000000000000000E+000
1.8859892E-001	1.259531039019998E-002	1.000000000000000E+000
1.9203690E-001	1.187945391965292E-002	1.000000000000000E+000
1.9546650E-001	1.175912550150297E-002	1.000000000000000E+000
1.9884542E-001	1.197226880986160E-002	1.000000000000000E+000
2.0220372E-001	1.189738739822635E-002	1.000000000000000E+000
2.0558280E-001	1.275632189132853E-002	1.000000000000000E+000
2.0898236E-001	1.211010068660504E-002	1.000000000000000E+000
2.1240729E-001	1.209970861115799E-002	1.000000000000000E+000
2.1581399E-001	1.221067763393840E-002	1.000000000000000E+000
2.1927799E-001	1.245029648455567E-002	1.000000000000000E+000
2.2263272E-001	1.308040290484380E-002	1.000000000000000E+000
2.2539419E-001	1.284860935403813E-002	1.000000000000000E+000
2.2630528E-001	2.114642198596681E-002	1.000000000000000E+000
2.2368927E-001	-1.639607552597535E-003	2.000000000000000E+000
2.1947822E-001	-2.894018006280974E-003	2.000000000000000E+000
2.1432193E-001	-6.424456164339579E-003	2.000000000000000E+000
2.1094874E-001	-7.689361174501544E-003	2.000000000000000E+000
2.0756304E-001	-7.822908287474853E-003	2.000000000000000E+000
2.0415868E-001	-8.304084337740603E-003	2.000000000000000E+000
2.0069239E-001	-8.970598322651679E-003	2.000000000000000E+000
1.9732305E-001	-9.826887392807704E-003	2.000000000000000E+000
1.9392435E-001	-1.027387074551106E-002	2.000000000000000E+000
1.9052488E-001	-1.061470497571776E-002	2.000000000000000E+000
1.8713176E-001	-1.103620278022061E-002	2.000000000000000E+000
1.8371724E-001	-1.153112801982056E-002	2.000000000000000E+000
1.8032411E-001	-1.249415547518162E-002	2.000000000000000E+000
1.7691757E-001	-1.245445011281434E-002	2.000000000000000E+000
1.7354526E-001	-1.268562649307531E-002	2.000000000000000E+000
1.7015131E-001	-1.312924542987380E-002	2.000000000000000E+000
1.6678408E-001	-1.343945206372747E-002	2.000000000000000E+000
1.6336027E-001	-1.483721917368479E-002	2.000000000000000E+000
1.5999103E-001	-1.419174968926210E-002	2.000000000000000E+000
1.5658094E-001	-1.441160547897466E-002	2.000000000000000E+000
1.5314282E-001	-1.481798957999000E-002	2.000000000000000E+000
1.4978471E-001	-1.504123174481753E-002	2.000000000000000E+000
1.4633021E-001	-1.639835840654075E-002	2.000000000000000E+000
1.4298765E-001	-1.555768960477566E-002	2.000000000000000E+000
1.3953471E-001	-1.578310113135596E-002	2.000000000000000E+000
1.3612078E-001	-1.586840343454898E-002	2.000000000000000E+000
1.3275531E-001	-1.630430260891536E-002	2.000000000000000E+000
1.2932286E-001	-1.659537636754915E-002	2.000000000000000E+000
1.2724623E-001	-1.633620784255399E-002	2.000000000000000E+000
1.2655929E-001	-1.420532829231686E-002	2.000000000000000E+000
1.2909923E-001	-8.270736022185509E-005	2.000000000000000E+000
1.3388145E-001	4.150671762778585E-003	2.000000000000000E+000
1.3801269E-001	7.679179624895977E-003	2.000000000000000E+000
1.4142734E-001	8.570685542680451E-003	2.000000000000000E+000
1.4476590E-001	9.023487847357570E-003	2.000000000000000E+000
1.4821057E-001	9.619853576030984E-003	2.000000000000000E+000
1.5157652E-001	9.911410938664406E-003	2.000000000000000E+000
1.5500964E-001	1.101708640672466E-002	2.000000000000000E+000
1.5843874E-001	1.075752612203187E-002	2.000000000000000E+000
1.6180789E-001	1.092518840416132E-002	2.000000000000000E+000
1.6520907E-001	1.106213710339982E-002	2.000000000000000E+000
1.6861936E-001	1.109866758089623E-002	2.000000000000000E+000
1.7199118E-001	1.202162264966911E-002	2.000000000000000E+000
1.7536148E-001	1.154108422687623E-002	2.000000000000000E+000
1.7873572E-001	1.149605642187493E-002	2.000000000000000E+000
1.8216832E-001	1.155200625511349E-002	2.000000000000000E+000
1.8558900E-001	1.160921302117884E-002	2.000000000000000E+000
1.8897592E-001	1.259350056789013E-002	2.000000000000000E+000
1.9234939E-001	1.170330792539091E-002	2.000000000000000E+000
1.9578302E-001	1.175674271108954E-002	2.000000000000000E+000
1.9915937E-001	1.189108607830980E-002	2.000000000000000E+000
2.0256968E-001	1.172175308430432E-002	2.000000000000000E+000
2.0593290E-001	1.247977141313558E-002	2.000000000000000E+000
2.0935148E-001	1.207046119892988E-002	2.000000000000000E+000
2.1279913E-001	1.214045981531875E-002	2.000000000000000E+000
2.1617633E-001	1.231696657945842E-002	2.000000000000000E+000
2.1961409E-001	1.285331700439859E-002	2.000000000000000E+000
2.2299740E-001	1.277841317955877E-002	2.000000000000000E+000
2.2543579E-001	1.278082527306990E-002	2.000000000000000E+000
2.2634996E-001	1.247402166740762E-002	2.000000000000000E+000
2.2633778E-001	1.542909909039736E-002	2.000000000000000E+000